Time [s],U3 [m],RF3 [N],n_buckled
0.000000e+00,-1.137380e-05,0.000000e+00,0
1.000000e+00,7.133049e-06,1.000025e+00,0
2.000000e+00,2.563997e-05,2.000050e+00,0
3.500000e+00,5.340064e-05,3.500099e+00,0
5.750000e+00,9.504272e-05,5.750216e+00,0
9.125000e+00,1.575098e-04,9.125561e+00,0
1.418750e+01,2.512245e-04,1.418920e+01,0
2.178125e+01,3.918463e-04,2.178688e+01,0
3.178125e+01,5.771689e-04,3.179843e+01,0
4.178125e+01,7.627318e-04,4.182080e+01,0
5.178125e+01,9.486411e-04,5.185873e+01,0
6.178125e+01,1.135036e-03,6.191837e+01,0
7.178125e+01,1.322109e-03,7.200800e+01,0
8.178125e+01,1.510140e-03,8.213924e+01,0
9.178125e+01,1.699548e-03,9.232764e+01,0
1.017812e+02,1.890847e-03,1.025849e+02,0
1.117812e+02,2.083277e-03,1.128164e+02,0
1.217812e+02,2.260478e-03,1.219383e+02,1
1.317812e+02,2.387841e-03,1.279299e+02,1
1.417812e+02,2.504820e-03,1.329401e+02,1
1.517812e+02,2.630742e-03,1.380436e+02,1
1.617812e+02,2.763656e-03,1.431816e+02,3
1.717812e+02,2.878183e-03,1.471821e+02,3
1.817812e+02,2.966175e-03,1.497028e+02,3
1.917812e+02,3.049926e-03,1.516699e+02,3
2.017812e+02,3.139263e-03,1.535078e+02,3
2.117812e+02,3.237229e-03,1.553723e+02,3
2.217812e+02,3.344362e-03,1.573192e+02,3
2.317812e+02,3.460273e-03,1.593653e+02,3
2.417812e+02,3.584238e-03,1.615109e+02,3
2.517812e+02,3.715434e-03,1.637494e+02,3
2.617812e+02,3.853045e-03,1.660711e+02,3
2.717812e+02,3.996309e-03,1.684659e+02,3
2.817812e+02,4.144534e-03,1.709235e+02,3
2.917812e+02,4.297099e-03,1.734345e+02,3
3.017812e+02,4.453453e-03,1.759898e+02,3
3.117812e+02,4.613115e-03,1.785818e+02,3
3.217812e+02,4.775650e-03,1.812031e+02,3
3.317812e+02,4.940667e-03,1.838467e+02,3
3.417812e+02,5.107802e-03,1.865061e+02,3
3.517812e+02,5.276703e-03,1.891744e+02,3
3.617812e+02,5.446997e-03,1.918441e+02,3
3.717812e+02,5.618225e-03,1.945052e+02,3
3.817812e+02,5.789703e-03,1.971429e+02,3
3.917812e+02,5.960084e-03,1.997284e+02,5
4.017812e+02,6.125776e-03,2.021910e+02,5
4.117812e+02,6.275853e-03,2.043331e+02,5
4.217812e+02,6.394969e-03,2.058948e+02,5
4.317812e+02,6.497213e-03,2.070944e+02,5
4.417812e+02,6.600410e-03,2.082130e+02,5
4.517812e+02,6.710208e-03,2.093509e+02,5
4.617812e+02,6.827319e-03,2.105325e+02,5
4.717812e+02,6.951063e-03,2.117584e+02,5
4.817812e+02,7.080505e-03,2.130228e+02,5
4.917812e+02,7.214771e-03,2.143185e+02,5
5.017812e+02,7.353122e-03,2.156392e+02,5
5.117812e+02,7.494957e-03,2.169790e+02,5
5.217812e+02,7.639783e-03,2.183334e+02,5
5.317812e+02,7.787202e-03,2.196984e+02,5
5.417812e+02,7.936887e-03,2.210707e+02,5
5.517812e+02,8.088592e-03,2.224479e+02,5
5.617812e+02,8.242033e-03,2.238270e+02,5
5.717812e+02,8.397043e-03,2.252063e+02,5
5.817812e+02,8.553474e-03,2.265843e+02,5
5.917812e+02,8.711197e-03,2.279597e+02,5
6.017812e+02,8.870100e-03,2.293312e+02,5
6.117812e+02,9.030086e-03,2.306979e+02,5
6.217812e+02,9.191073e-03,2.320589e+02,5
6.317812e+02,9.352988e-03,2.334133e+02,5
6.417812e+02,9.515767e-03,2.347607e+02,5
6.517812e+02,9.679358e-03,2.361003e+02,5
6.617812e+02,9.843712e-03,2.374316e+02,5
6.717812e+02,1.000879e-02,2.387544e+02,5
6.817812e+02,1.017454e-02,2.400680e+02,5
6.917812e+02,1.034095e-02,2.413723e+02,5
7.017812e+02,1.050797e-02,2.426668e+02,5
7.117812e+02,1.067559e-02,2.439514e+02,5
7.217812e+02,1.084377e-02,2.452257e+02,5
7.317812e+02,1.101249e-02,2.464896e+02,5
7.417812e+02,1.118174e-02,2.477428e+02,5
7.517812e+02,1.135148e-02,2.489852e+02,5
7.617812e+02,1.152171e-02,2.502165e+02,5
7.717812e+02,1.169239e-02,2.514367e+02,5
7.817812e+02,1.186352e-02,2.526457e+02,5
7.917812e+02,1.203508e-02,2.538432e+02,5
8.017812e+02,1.220704e-02,2.550291e+02,5
8.117812e+02,1.237940e-02,2.562034e+02,5
8.217812e+02,1.255214e-02,2.573660e+02,5
8.317812e+02,1.272524e-02,2.585168e+02,5
8.417812e+02,1.289869e-02,2.596557e+02,5
8.517812e+02,1.307247e-02,2.607826e+02,5
8.617812e+02,1.324656e-02,2.618974e+02,5
8.717812e+02,1.342097e-02,2.630002e+02,5
8.817812e+02,1.359566e-02,2.640908e+02,5
8.917812e+02,1.377063e-02,2.651693e+02,5
9.017812e+02,1.394586e-02,2.662355e+02,5
9.117812e+02,1.412134e-02,2.672895e+02,5
9.217812e+02,1.429706e-02,2.683311e+02,5
9.317812e+02,1.447300e-02,2.693605e+02,5
9.417812e+02,1.464916e-02,2.703775e+02,5
9.517812e+02,1.482551e-02,2.713821e+02,5
9.617812e+02,1.500205e-02,2.723744e+02,5
9.717812e+02,1.517877e-02,2.733542e+02,5
9.817812e+02,1.535565e-02,2.743216e+02,5
9.917812e+02,1.553268e-02,2.752765e+02,5
1.001781e+03,1.570985e-02,2.762189e+02,5
1.011781e+03,1.588715e-02,2.771488e+02,5
1.021781e+03,1.606457e-02,2.780661e+02,5
1.031781e+03,1.624208e-02,2.789707e+02,5
1.041781e+03,1.641968e-02,2.798627e+02,5
1.051781e+03,1.659736e-02,2.807419e+02,5
1.061781e+03,1.677509e-02,2.816082e+02,5
1.071781e+03,1.695288e-02,2.824615e+02,5
1.081781e+03,1.713069e-02,2.833018e+02,5
1.091781e+03,1.730851e-02,2.841288e+02,5
1.101781e+03,1.748632e-02,2.849425e+02,5
1.111781e+03,1.766411e-02,2.857425e+02,5
1.121781e+03,1.784184e-02,2.865288e+02,5
1.131781e+03,1.801951e-02,2.873010e+02,5
1.141781e+03,1.819708e-02,2.880590e+02,5
1.151781e+03,1.837454e-02,2.888024e+02,5
1.161781e+03,1.855185e-02,2.895310e+02,5
1.171781e+03,1.872898e-02,2.902445e+02,5
1.181781e+03,1.890593e-02,2.909426e+02,5
1.191781e+03,1.908265e-02,2.916250e+02,5
1.201781e+03,1.925914e-02,2.922914e+02,5
1.211781e+03,1.943535e-02,2.929417e+02,5
1.221781e+03,1.961129e-02,2.935755e+02,5
1.231781e+03,1.978692e-02,2.941925e+02,5
1.241781e+03,1.996222e-02,2.947926e+02,5
1.251781e+03,2.013717e-02,2.953753e+02,5
1.261781e+03,2.031174e-02,2.959404e+02,5
1.271781e+03,2.048587e-02,2.964872e+02,5
1.281781e+03,2.065950e-02,2.970150e+02,5
1.291781e+03,2.083250e-02,2.975227e+02,5
1.301781e+03,2.100474e-02,2.980088e+02,5
1.311781e+03,2.117600e-02,2.984712e+02,5
1.321781e+03,2.134597e-02,2.989070e+02,5
1.331781e+03,2.151435e-02,2.993136e+02,7
1.341781e+03,2.168072e-02,2.996869e+02,7
1.351781e+03,2.184472e-02,3.000235e+02,7
1.361781e+03,2.200609e-02,3.003205e+02,9
1.371781e+03,2.216479e-02,3.005764e+02,9
1.381781e+03,2.232099e-02,3.007914e+02,9
1.391781e+03,2.247510e-02,3.009674e+02,9
1.401781e+03,2.262752e-02,3.011065e+02,9
1.411781e+03,2.277876e-02,3.012123e+02,9
1.421781e+03,2.292925e-02,3.012881e+02,9
1.431781e+03,2.307934e-02,3.013369e+02,9
1.441781e+03,2.322928e-02,3.013615e+02,9
1.451781e+03,2.337927e-02,3.013642e+02,9
1.461781e+03,2.352944e-02,3.013472e+02,9
1.471781e+03,2.367989e-02,3.013121e+02,9
1.481781e+03,2.383066e-02,3.012605e+02,9
1.491781e+03,2.398180e-02,3.011936e+02,9
1.501781e+03,2.413333e-02,3.011127e+02,9
1.511781e+03,2.428525e-02,3.010188e+02,9
1.521781e+03,2.443757e-02,3.009126e+02,9
1.531781e+03,2.459027e-02,3.007951e+02,9
1.541781e+03,2.474335e-02,3.006668e+02,9
1.551781e+03,2.489679e-02,3.005286e+02,9
1.561781e+03,2.505059e-02,3.003809e+02,9
1.571781e+03,2.520473e-02,3.002243e+02,9
1.581781e+03,2.535919e-02,3.000594e+02,9
1.591781e+03,2.551396e-02,2.998866e+02,9
1.601781e+03,2.566902e-02,2.997063e+02,9
1.611781e+03,2.582435e-02,2.995190e+02,9
1.621781e+03,2.597995e-02,2.993250e+02,9
1.631781e+03,2.613579e-02,2.991247e+02,9
1.641781e+03,2.629186e-02,2.989185e+02,9
1.651781e+03,2.644815e-02,2.987066e+02,9
1.661781e+03,2.660463e-02,2.984894e+02,9
1.671781e+03,2.676130e-02,2.982672e+02,9
1.681781e+03,2.691814e-02,2.980402e+02,9
1.691781e+03,2.707512e-02,2.978086e+02,9
1.701781e+03,2.723224e-02,2.975726e+02,9
1.711781e+03,2.738947e-02,2.973325e+02,9
1.721781e+03,2.754679e-02,2.970883e+02,9
1.731781e+03,2.770418e-02,2.968402e+02,9
1.741781e+03,2.786160e-02,2.965883e+02,9
1.751781e+03,2.801905e-02,2.963326e+02,9
1.761781e+03,2.817647e-02,2.960732e+02,9
1.771781e+03,2.833383e-02,2.958099e+02,9
1.781781e+03,2.849109e-02,2.955427e+02,9
1.791781e+03,2.864821e-02,2.952714e+02,9
1.801781e+03,2.880512e-02,2.949958e+02,9
1.811781e+03,2.896178e-02,2.947158e+02,9
1.821781e+03,2.911812e-02,2.944310e+02,9
1.831781e+03,2.927408e-02,2.941411e+02,9
1.841781e+03,2.942961e-02,2.938457e+02,9
1.851781e+03,2.958467e-02,2.935446e+02,9
1.861781e+03,2.973923e-02,2.932377e+02,9
1.871781e+03,2.989327e-02,2.929246e+02,9
1.881781e+03,3.004681e-02,2.926053e+02,9
1.891781e+03,3.019985e-02,2.922798e+02,9
1.901781e+03,3.035243e-02,2.919481e+02,10
1.911781e+03,3.050455e-02,2.916102e+02,10
1.921781e+03,3.065620e-02,2.912661e+02,10
1.931781e+03,3.080733e-02,2.909153e+02,10
1.941781e+03,3.095778e-02,2.905573e+02,10
1.951781e+03,3.110721e-02,2.901901e+02,10
1.961781e+03,3.125491e-02,2.898115e+02,12
1.971781e+03,3.139929e-02,2.894160e+02,12
1.981781e+03,3.153737e-02,2.889949e+02,12
1.991781e+03,3.166510e-02,2.885374e+02,12
2.001781e+03,3.178069e-02,2.880331e+02,12
2.011781e+03,3.188691e-02,2.874745e+02,12
2.021781e+03,3.198802e-02,2.868597e+02,12
2.031781e+03,3.208706e-02,2.861926e+02,12
2.041781e+03,3.218555e-02,2.854798e+02,12
2.051781e+03,3.228412e-02,2.847282e+02,12
2.061781e+03,3.238294e-02,2.839438e+02,12
2.071781e+03,3.248199e-02,2.831320e+02,12
2.081781e+03,3.258119e-02,2.822970e+02,12
2.091781e+03,3.268045e-02,2.814423e+02,12
2.101781e+03,3.277970e-02,2.805712e+02,12
2.111781e+03,3.287888e-02,2.796857e+02,12
2.121781e+03,3.297796e-02,2.787885e+02,12
2.131781e+03,3.307695e-02,2.778813e+02,12
2.141781e+03,3.317584e-02,2.769661e+02,12
2.151781e+03,3.327466e-02,2.760445e+02,12
2.161781e+03,3.337344e-02,2.751180e+02,12
2.171781e+03,3.347220e-02,2.741880e+02,12
2.181781e+03,3.357098e-02,2.732559e+02,12
2.191781e+03,3.366980e-02,2.723227e+02,12
2.201781e+03,3.376868e-02,2.713896e+02,12
2.211781e+03,3.386763e-02,2.704576e+02,12
2.221781e+03,3.396666e-02,2.695278e+02,12
2.231781e+03,3.406577e-02,2.686009e+02,12
2.241781e+03,3.416494e-02,2.676777e+02,12
2.251781e+03,3.426417e-02,2.667592e+02,12
2.261781e+03,3.436343e-02,2.658458e+02,12
2.271781e+03,3.446271e-02,2.649384e+02,14
2.281781e+03,3.456200e-02,2.640375e+02,14
2.291781e+03,3.466132e-02,2.631437e+02,14
2.301781e+03,3.476068e-02,2.622578e+02,14
2.311781e+03,3.486015e-02,2.613803e+02,14
2.321781e+03,3.495980e-02,2.605120e+02,14
2.331781e+03,3.505972e-02,2.596537e+02,14
2.341781e+03,3.516006e-02,2.588062e+02,14
2.351781e+03,3.526097e-02,2.579705e+02,16
2.361781e+03,3.536259e-02,2.571476e+02,16
2.371781e+03,3.546512e-02,2.563387e+02,16
2.381781e+03,3.556870e-02,2.555451e+02,16
2.391781e+03,3.567351e-02,2.547680e+02,16
2.401781e+03,3.577970e-02,2.540088e+02,16
2.411781e+03,3.588739e-02,2.532688e+02,16
2.421781e+03,3.599669e-02,2.525493e+02,16
2.431781e+03,3.610772e-02,2.518515e+02,16
2.441781e+03,3.622053e-02,2.511767e+02,16
2.451781e+03,3.633518e-02,2.505261e+02,16
2.461781e+03,3.645172e-02,2.499005e+02,16
2.471781e+03,3.657015e-02,2.493009e+02,16
2.481781e+03,3.669049e-02,2.487281e+02,16
2.491781e+03,3.681273e-02,2.481827e+02,16
2.501781e+03,3.693683e-02,2.476653e+02,16
2.511781e+03,3.706278e-02,2.471761e+02,16
2.521781e+03,3.719053e-02,2.467156e+02,16
2.531781e+03,3.732002e-02,2.462838e+02,16
2.541781e+03,3.745121e-02,2.458807e+02,16
2.551781e+03,3.758403e-02,2.455063e+02,16
2.561781e+03,3.771842e-02,2.451603e+02,16
2.571781e+03,3.785430e-02,2.448425e+02,16
2.581781e+03,3.799161e-02,2.445524e+02,16
2.591781e+03,3.813028e-02,2.442896e+02,16
2.601781e+03,3.827024e-02,2.440536e+02,16
2.611781e+03,3.841140e-02,2.438437e+02,16
2.621781e+03,3.855370e-02,2.436593e+02,16
2.631781e+03,3.869708e-02,2.434996e+02,16
2.641781e+03,3.884144e-02,2.433638e+02,16
2.651781e+03,3.898674e-02,2.432512e+02,16
2.661781e+03,3.913289e-02,2.431609e+02,16
2.671781e+03,3.927984e-02,2.430920e+02,16
2.681781e+03,3.942752e-02,2.430435e+02,16
2.691781e+03,3.957585e-02,2.430146e+02,16
2.701781e+03,3.972480e-02,2.430043e+02,16
2.711781e+03,3.987428e-02,2.430116e+02,16
2.721781e+03,4.002426e-02,2.430355e+02,16
2.731781e+03,4.017466e-02,2.430751e+02,16
2.741781e+03,4.032545e-02,2.431295e+02,16
2.751781e+03,4.047656e-02,2.431976e+02,16
2.761781e+03,4.062796e-02,2.432784e+02,16
2.771781e+03,4.077959e-02,2.433712e+02,16
2.781781e+03,4.093140e-02,2.434748e+02,16
2.791781e+03,4.108337e-02,2.435885e+02,16
2.801781e+03,4.123546e-02,2.437113e+02,16
2.811781e+03,4.138762e-02,2.438426e+02,16
2.821781e+03,4.153983e-02,2.439814e+02,16
2.831781e+03,4.169205e-02,2.441271e+02,16
2.841781e+03,4.184427e-02,2.442791e+02,16
2.851781e+03,4.199647e-02,2.444366e+02,16
2.861781e+03,4.214862e-02,2.445991e+02,16
2.871781e+03,4.230071e-02,2.447662e+02,16
2.881781e+03,4.245273e-02,2.449374e+02,16
2.891781e+03,4.260467e-02,2.451124e+02,16
2.901781e+03,4.275654e-02,2.452908e+02,16
2.911781e+03,4.290831e-02,2.454723e+02,16
2.921781e+03,4.306001e-02,2.456568e+02,16
2.931781e+03,4.321162e-02,2.458441e+02,16
2.941781e+03,4.336315e-02,2.460341e+02,16
2.951781e+03,4.351462e-02,2.462267e+02,16
2.961781e+03,4.366601e-02,2.464219e+02,16
2.971781e+03,4.381735e-02,2.466195e+02,16
2.981781e+03,4.396863e-02,2.468197e+02,16
2.991781e+03,4.411986e-02,2.470225e+02,16
3.001781e+03,4.427107e-02,2.472279e+02,16
3.011781e+03,4.442224e-02,2.474359e+02,16
3.021781e+03,4.457339e-02,2.476466e+02,16
3.031781e+03,4.472452e-02,2.478601e+02,16
3.041781e+03,4.487565e-02,2.480764e+02,16
3.051781e+03,4.502677e-02,2.482956e+02,16
3.061781e+03,4.517789e-02,2.485177e+02,16
3.071781e+03,4.532902e-02,2.487428e+02,16
3.081781e+03,4.548015e-02,2.489710e+02,16
3.091781e+03,4.563131e-02,2.492023e+02,16
3.101781e+03,4.578247e-02,2.494367e+02,16
3.111781e+03,4.593366e-02,2.496744e+02,16
3.121781e+03,4.608487e-02,2.499153e+02,16
3.131781e+03,4.623610e-02,2.501594e+02,16
3.141781e+03,4.638735e-02,2.504069e+02,16
3.151781e+03,4.653863e-02,2.506577e+02,16
3.161781e+03,4.668993e-02,2.509118e+02,18
3.171781e+03,4.684126e-02,2.511693e+02,18
3.181781e+03,4.699261e-02,2.514301e+02,18
3.191781e+03,4.714398e-02,2.516943e+02,18
3.201781e+03,4.729538e-02,2.519619e+02,18
3.211781e+03,4.744681e-02,2.522329e+02,18
3.221781e+03,4.759825e-02,2.525073e+02,18
3.231781e+03,4.774972e-02,2.527850e+02,18
3.241781e+03,4.790120e-02,2.530660e+02,18
3.251781e+03,4.805271e-02,2.533504e+02,18
3.261781e+03,4.820423e-02,2.536382e+02,18
3.271781e+03,4.835577e-02,2.539292e+02,18
3.281781e+03,4.850732e-02,2.542235e+02,18
3.291781e+03,4.865889e-02,2.545211e+02,18
3.301781e+03,4.881047e-02,2.548220e+02,18
3.311781e+03,4.896206e-02,2.551261e+02,18
3.321781e+03,4.911365e-02,2.554334e+02,18
3.331781e+03,4.926526e-02,2.557438e+02,18
3.341781e+03,4.941687e-02,2.560574e+02,18
3.351781e+03,4.956849e-02,2.563742e+02,18
3.361781e+03,4.972010e-02,2.566940e+02,18
3.371781e+03,4.987172e-02,2.570169e+02,18
3.381781e+03,5.002334e-02,2.573428e+02,18
3.391781e+03,5.017496e-02,2.576718e+02,18
3.401781e+03,5.032658e-02,2.580037e+02,18
3.411781e+03,5.047819e-02,2.583385e+02,18
3.421781e+03,5.062979e-02,2.586763e+02,18
3.431781e+03,5.078139e-02,2.590170e+02,18
3.441781e+03,5.093298e-02,2.593605e+02,18
3.451781e+03,5.108457e-02,2.597069e+02,18
3.461781e+03,5.123613e-02,2.600560e+02,18
3.471781e+03,5.138769e-02,2.604079e+02,18
3.481781e+03,5.153924e-02,2.607626e+02,18
3.491781e+03,5.169077e-02,2.611199e+02,18
3.501781e+03,5.184228e-02,2.614799e+02,18
3.511781e+03,5.199378e-02,2.618426e+02,18
3.521781e+03,5.214526e-02,2.622078e+02,18
3.531781e+03,5.229672e-02,2.625757e+02,18
3.541781e+03,5.244816e-02,2.629460e+02,18
3.551781e+03,5.259958e-02,2.633189e+02,18
3.561781e+03,5.275098e-02,2.636943e+02,18
3.571781e+03,5.290236e-02,2.640722e+02,18
3.581781e+03,5.305370e-02,2.644524e+02,18
3.591781e+03,5.320503e-02,2.648351e+02,18
3.601781e+03,5.335633e-02,2.652201e+02,18
3.611781e+03,5.350760e-02,2.656075e+02,18
3.621781e+03,5.365884e-02,2.659971e+02,18
3.631781e+03,5.381006e-02,2.663890e+02,18
3.641781e+03,5.396124e-02,2.667832e+02,18
3.651781e+03,5.411240e-02,2.671796e+02,18
3.661781e+03,5.426352e-02,2.675782e+02,18
3.671781e+03,5.441461e-02,2.679790e+02,18
3.681781e+03,5.456566e-02,2.683818e+02,18
3.691781e+03,5.471669e-02,2.687868e+02,18
3.701781e+03,5.486767e-02,2.691938e+02,18
3.711781e+03,5.501863e-02,2.696029e+02,18
