Time [s],U3 [m],RF3 [N],n_buckled
0.000000e+00,-1.908571e-06,0.000000e+00,0
1.000000e+00,1.768765e-05,1.000047e+00,0
2.000000e+00,3.728391e-05,2.000091e+00,0
3.500000e+00,6.667848e-05,3.500165e+00,0
5.750000e+00,1.107709e-04,5.750302e+00,0
9.125000e+00,1.769118e-04,9.125605e+00,0
1.418750e+01,2.761305e-04,1.418890e+01,0
2.178125e+01,4.249845e-04,2.178506e+01,0
3.178125e+01,6.210778e-04,3.179164e+01,0
4.178125e+01,8.172886e-04,4.180376e+01,0
5.178125e+01,1.013660e-03,5.182346e+01,0
6.178125e+01,1.210244e-03,6.185300e+01,0
7.178125e+01,1.407101e-03,7.189501e+01,0
8.178125e+01,1.604305e-03,8.195261e+01,0
9.178125e+01,1.801951e-03,9.202965e+01,0
1.017812e+02,2.000166e-03,1.021309e+02,0
1.117812e+02,2.199119e-03,1.122627e+02,0
1.217812e+02,2.399044e-03,1.224327e+02,0
1.317812e+02,2.600260e-03,1.326498e+02,0
1.417812e+02,2.803131e-03,1.429175e+02,0
1.517812e+02,3.007466e-03,1.531878e+02,0
1.617812e+02,3.207804e-03,1.630674e+02,0
1.717812e+02,3.378806e-03,1.710448e+02,1
1.817812e+02,3.518466e-03,1.769669e+02,1
1.917812e+02,3.656569e-03,1.823861e+02,1
2.017812e+02,3.804228e-03,1.879194e+02,1
2.117812e+02,3.961384e-03,1.936075e+02,1
2.217812e+02,4.116438e-03,1.989204e+02,1
2.317812e+02,4.243076e-03,2.027333e+02,3
2.417812e+02,4.347316e-03,2.052727e+02,3
2.517812e+02,4.448854e-03,2.072950e+02,3
2.617812e+02,4.556279e-03,2.091524e+02,3
2.717812e+02,4.672371e-03,2.109880e+02,3
2.817812e+02,4.797549e-03,2.128581e+02,3
2.917812e+02,4.931320e-03,2.147828e+02,3
3.017812e+02,5.072869e-03,2.167661e+02,3
3.117812e+02,5.221312e-03,2.188048e+02,3
3.217812e+02,5.375799e-03,2.208931e+02,3
3.317812e+02,5.535558e-03,2.230241e+02,3
3.417812e+02,5.699905e-03,2.251909e+02,3
3.517812e+02,5.868244e-03,2.273872e+02,3
3.617812e+02,6.040056e-03,2.296069e+02,3
3.717812e+02,6.214901e-03,2.318453e+02,3
3.817812e+02,6.392390e-03,2.340976e+02,3
3.917812e+02,6.572192e-03,2.363598e+02,3
4.017812e+02,6.754015e-03,2.386284e+02,3
4.117812e+02,6.937608e-03,2.409003e+02,3
4.217812e+02,7.122747e-03,2.431727e+02,3
4.317812e+02,7.309232e-03,2.454430e+02,3
4.417812e+02,7.496883e-03,2.477088e+02,3
4.517812e+02,7.685530e-03,2.499678e+02,3
4.617812e+02,7.875006e-03,2.522174e+02,3
4.717812e+02,8.065141e-03,2.544550e+02,3
4.817812e+02,8.255744e-03,2.566769e+02,3
4.917812e+02,8.446584e-03,2.588788e+02,3
5.017812e+02,8.637333e-03,2.610538e+02,3
5.117812e+02,8.827481e-03,2.631915e+02,3
5.217812e+02,9.016101e-03,2.652733e+02,3
5.317812e+02,9.201248e-03,2.672645e+02,5
5.417812e+02,9.378411e-03,2.690936e+02,5
5.517812e+02,9.538492e-03,2.706336e+02,5
5.617812e+02,9.675493e-03,2.718100e+02,5
5.717812e+02,9.799618e-03,2.727444e+02,5
5.817812e+02,9.922908e-03,2.735796e+02,5
5.917812e+02,1.005069e-02,2.743861e+02,5
6.017812e+02,1.018434e-02,2.751908e+02,5
6.117812e+02,1.032370e-02,2.760016e+02,5
6.217812e+02,1.046814e-02,2.768196e+02,5
6.317812e+02,1.061698e-02,2.776435e+02,5
6.417812e+02,1.076959e-02,2.784708e+02,5
6.517812e+02,1.092544e-02,2.792994e+02,5
6.617812e+02,1.108408e-02,2.801272e+02,5
6.717812e+02,1.124512e-02,2.809523e+02,5
6.817812e+02,1.140828e-02,2.817733e+02,5
6.917812e+02,1.157329e-02,2.825889e+02,5
7.017812e+02,1.173992e-02,2.833978e+02,5
7.117812e+02,1.190799e-02,2.841991e+02,5
7.217812e+02,1.207736e-02,2.849922e+02,5
7.317812e+02,1.224789e-02,2.857764e+02,5
7.417812e+02,1.241947e-02,2.865511e+02,5
7.517812e+02,1.259200e-02,2.873159e+02,5
7.617812e+02,1.276539e-02,2.880704e+02,5
7.717812e+02,1.293958e-02,2.888143e+02,5
7.817812e+02,1.311449e-02,2.895474e+02,5
7.917812e+02,1.329007e-02,2.902694e+02,5
8.017812e+02,1.346626e-02,2.909802e+02,5
8.117812e+02,1.364302e-02,2.916797e+02,5
8.217812e+02,1.382032e-02,2.923677e+02,5
8.317812e+02,1.399810e-02,2.930442e+02,5
8.417812e+02,1.417635e-02,2.937091e+02,5
8.517812e+02,1.435503e-02,2.943623e+02,5
8.617812e+02,1.453411e-02,2.950039e+02,5
8.717812e+02,1.471356e-02,2.956338e+02,5
8.817812e+02,1.489338e-02,2.962520e+02,5
8.917812e+02,1.507353e-02,2.968585e+02,5
9.017812e+02,1.525400e-02,2.974532e+02,5
9.117812e+02,1.543476e-02,2.980363e+02,5
9.217812e+02,1.561579e-02,2.986075e+02,5
9.317812e+02,1.579709e-02,2.991669e+02,5
9.417812e+02,1.597863e-02,2.997146e+02,5
9.517812e+02,1.616040e-02,3.002503e+02,5
9.617812e+02,1.634237e-02,3.007741e+02,5
9.717812e+02,1.652453e-02,3.012859e+02,5
9.817812e+02,1.670685e-02,3.017854e+02,5
9.917812e+02,1.688932e-02,3.022727e+02,5
1.001781e+03,1.707190e-02,3.027474e+02,5
1.011781e+03,1.725458e-02,3.032094e+02,5
1.021781e+03,1.743733e-02,3.036584e+02,5
1.031781e+03,1.762010e-02,3.040941e+02,5
1.041781e+03,1.780287e-02,3.045161e+02,5
1.051781e+03,1.798560e-02,3.049240e+02,5
1.061781e+03,1.816824e-02,3.053173e+02,5
1.071781e+03,1.835074e-02,3.056956e+02,5
1.081781e+03,1.853305e-02,3.060583e+02,5
1.091781e+03,1.871514e-02,3.064049e+02,5
1.101781e+03,1.889695e-02,3.067350e+02,5
1.111781e+03,1.907845e-02,3.070482e+02,5
1.121781e+03,1.925959e-02,3.073439e+02,5
1.131781e+03,1.944038e-02,3.076221e+02,5
1.141781e+03,1.962078e-02,3.078827e+02,5
1.151781e+03,1.980083e-02,3.081256e+02,5
1.161781e+03,1.998053e-02,3.083512e+02,5
1.171781e+03,2.015992e-02,3.085596e+02,5
1.181781e+03,2.033904e-02,3.087514e+02,5
1.191781e+03,2.051792e-02,3.089270e+02,5
1.201781e+03,2.069660e-02,3.090868e+02,5
1.211781e+03,2.087511e-02,3.092312e+02,5
1.221781e+03,2.105346e-02,3.093605e+02,5
1.231781e+03,2.123163e-02,3.094747e+02,7
1.241781e+03,2.140958e-02,3.095736e+02,7
1.251781e+03,2.158722e-02,3.096568e+02,7
1.261781e+03,2.176442e-02,3.097230e+02,7
1.271781e+03,2.194094e-02,3.097704e+02,7
1.281781e+03,2.211642e-02,3.097963e+02,7
1.291781e+03,2.229042e-02,3.097973e+02,7
1.301781e+03,2.246223e-02,3.097680e+02,7
1.311781e+03,2.263100e-02,3.097024e+02,7
1.321781e+03,2.279587e-02,3.095937e+02,7
1.331781e+03,2.295624e-02,3.094364e+02,9
1.341781e+03,2.311199e-02,3.092272e+02,9
1.351781e+03,2.326359e-02,3.089661e+02,9
1.361781e+03,2.341194e-02,3.086554e+02,9
1.371781e+03,2.355806e-02,3.082996e+02,9
1.381781e+03,2.370275e-02,3.079030e+02,9
1.391781e+03,2.384676e-02,3.074708e+02,9
1.401781e+03,2.399059e-02,3.070071e+02,9
1.411781e+03,2.413459e-02,3.065159e+02,9
1.421781e+03,2.427897e-02,3.060003e+02,9
1.431781e+03,2.442387e-02,3.054632e+02,9
1.441781e+03,2.456937e-02,3.049067e+02,9
1.451781e+03,2.471550e-02,3.043330e+02,9
1.461781e+03,2.486227e-02,3.037437e+02,9
1.471781e+03,2.500968e-02,3.031401e+02,9
1.481781e+03,2.515772e-02,3.025236e+02,9
1.491781e+03,2.530635e-02,3.018951e+02,9
1.501781e+03,2.545555e-02,3.012557e+02,9
1.511781e+03,2.560529e-02,3.006060e+02,9
1.521781e+03,2.575553e-02,2.999469e+02,9
1.531781e+03,2.590623e-02,2.992789e+02,9
1.541781e+03,2.605734e-02,2.986024e+02,9
1.551781e+03,2.620882e-02,2.979181e+02,9
1.561781e+03,2.636063e-02,2.972261e+02,9
1.571781e+03,2.651270e-02,2.965268e+02,9
1.581781e+03,2.666499e-02,2.958203e+02,9
1.591781e+03,2.681742e-02,2.951069e+02,9
1.601781e+03,2.696994e-02,2.943866e+02,9
1.611781e+03,2.712246e-02,2.936593e+02,9
1.621781e+03,2.727489e-02,2.929250e+02,9
1.631781e+03,2.742714e-02,2.921833e+02,9
1.641781e+03,2.757909e-02,2.914341e+02,9
1.651781e+03,2.773061e-02,2.906770e+02,9
1.661781e+03,2.788156e-02,2.899114e+02,9
1.671781e+03,2.803175e-02,2.891368e+02,9
1.681781e+03,2.818101e-02,2.883525e+02,9
1.691781e+03,2.832912e-02,2.875578e+02,9
1.701781e+03,2.847588e-02,2.867514e+02,9
1.711781e+03,2.862114e-02,2.859336e+02,9
1.721781e+03,2.876476e-02,2.851036e+02,9
1.731781e+03,2.890664e-02,2.842604e+02,9
1.741781e+03,2.904682e-02,2.834043e+02,9
1.751781e+03,2.918539e-02,2.825355e+02,9
1.761781e+03,2.932250e-02,2.816547e+02,10
1.771781e+03,2.945833e-02,2.807628e+02,10
1.781781e+03,2.959308e-02,2.798611e+02,10
1.791781e+03,2.972693e-02,2.789510e+02,10
1.801781e+03,2.986007e-02,2.780341e+02,10
1.811781e+03,2.999265e-02,2.771121e+02,10
1.821781e+03,3.012481e-02,2.761865e+02,10
1.831781e+03,3.025667e-02,2.752588e+02,10
1.841781e+03,3.038833e-02,2.743304e+02,10
1.851781e+03,3.051983e-02,2.734023e+02,10
1.861781e+03,3.065118e-02,2.724756e+02,10
1.871781e+03,3.078233e-02,2.715506e+02,10
1.881781e+03,3.091312e-02,2.706273e+02,10
1.891781e+03,3.104327e-02,2.697052e+02,10
1.901781e+03,3.117215e-02,2.687820e+02,10
1.911781e+03,3.129867e-02,2.678559e+02,10
1.921781e+03,3.142045e-02,2.669224e+02,12
1.931781e+03,3.153298e-02,2.659781e+02,12
1.941781e+03,3.163045e-02,2.650210e+02,12
1.951781e+03,3.171151e-02,2.640386e+02,12
1.961781e+03,3.178092e-02,2.630056e+02,14
1.971781e+03,3.184387e-02,2.619063e+02,14
1.981781e+03,3.190337e-02,2.607414e+02,14
1.991781e+03,3.196081e-02,2.595193e+02,14
2.001781e+03,3.201665e-02,2.582506e+02,14
2.011781e+03,3.207101e-02,2.569453e+02,14
2.021781e+03,3.212387e-02,2.556115e+02,14
2.031781e+03,3.217522e-02,2.542558e+02,14
2.041781e+03,3.222515e-02,2.528832e+02,16
2.051781e+03,3.227383e-02,2.514973e+02,16
2.061781e+03,3.232155e-02,2.501011e+02,16
2.071781e+03,3.236867e-02,2.486971e+02,16
2.081781e+03,3.241552e-02,2.472869e+02,16
2.091781e+03,3.246251e-02,2.458727e+02,16
2.101781e+03,3.251005e-02,2.444565e+02,16
2.111781e+03,3.255851e-02,2.430403e+02,16
2.121781e+03,3.260823e-02,2.416263e+02,16
2.131781e+03,3.265955e-02,2.402168e+02,16
2.141781e+03,3.271274e-02,2.388141e+02,16
2.151781e+03,3.276809e-02,2.374208e+02,16
2.161781e+03,3.282583e-02,2.360393e+02,16
2.171781e+03,3.288619e-02,2.346721e+02,16
2.181781e+03,3.294935e-02,2.333218e+02,16
2.191781e+03,3.301550e-02,2.319909e+02,16
2.201781e+03,3.308478e-02,2.306819e+02,16
2.211781e+03,3.315733e-02,2.293974e+02,16
2.221781e+03,3.323326e-02,2.281397e+02,16
2.231781e+03,3.331266e-02,2.269113e+02,16
2.241781e+03,3.339561e-02,2.257144e+02,16
2.251781e+03,3.348216e-02,2.245513e+02,16
2.261781e+03,3.357234e-02,2.234240e+02,16
2.271781e+03,3.366617e-02,2.223345e+02,16
2.281781e+03,3.376365e-02,2.212847e+02,16
2.291781e+03,3.386475e-02,2.202760e+02,16
2.301781e+03,3.396944e-02,2.193101e+02,16
2.311781e+03,3.407766e-02,2.183881e+02,16
2.321781e+03,3.418933e-02,2.175112e+02,16
2.331781e+03,3.430436e-02,2.166796e+02,16
2.341781e+03,3.442269e-02,2.158951e+02,16
2.351781e+03,3.454419e-02,2.151576e+02,16
2.361781e+03,3.466875e-02,2.144673e+02,16
2.371781e+03,3.479625e-02,2.138243e+02,16
2.381781e+03,3.492655e-02,2.132285e+02,16
2.391781e+03,3.505953e-02,2.126796e+02,16
2.401781e+03,3.519505e-02,2.121771e+02,16
2.411781e+03,3.533299e-02,2.117205e+02,16
2.421781e+03,3.547321e-02,2.113091e+02,16
2.431781e+03,3.561557e-02,2.109420e+02,16
2.441781e+03,3.575995e-02,2.106184e+02,16
2.451781e+03,3.590623e-02,2.103373e+02,16
2.461781e+03,3.605429e-02,2.100976e+02,16
2.471781e+03,3.620400e-02,2.098983e+02,16
2.481781e+03,3.635526e-02,2.097381e+02,16
2.491781e+03,3.650797e-02,2.096161e+02,16
2.501781e+03,3.666202e-02,2.095310e+02,16
2.511781e+03,3.681732e-02,2.094815e+02,16
2.521781e+03,3.697377e-02,2.094670e+02,16
2.531781e+03,3.713130e-02,2.094855e+02,16
2.541781e+03,3.728981e-02,2.095362e+02,16
2.551781e+03,3.744924e-02,2.096179e+02,16
2.561781e+03,3.760951e-02,2.097296e+02,16
2.571781e+03,3.777056e-02,2.098700e+02,16
2.581781e+03,3.793233e-02,2.100382e+02,16
2.591781e+03,3.809475e-02,2.102330e+02,16
2.601781e+03,3.825777e-02,2.104534e+02,16
2.611781e+03,3.842135e-02,2.106983e+02,16
2.621781e+03,3.858543e-02,2.109668e+02,16
2.631781e+03,3.874997e-02,2.112580e+02,16
2.641781e+03,3.891493e-02,2.115707e+02,16
2.651781e+03,3.908026e-02,2.119042e+02,16
2.661781e+03,3.924593e-02,2.122575e+02,16
2.671781e+03,3.941191e-02,2.126297e+02,16
2.681781e+03,3.957815e-02,2.130199e+02,16
2.691781e+03,3.974464e-02,2.134274e+02,16
2.701781e+03,3.991134e-02,2.138512e+02,16
2.711781e+03,4.007822e-02,2.142906e+02,16
2.721781e+03,4.024525e-02,2.147446e+02,16
2.731781e+03,4.041242e-02,2.152127e+02,16
2.741781e+03,4.057969e-02,2.156938e+02,16
2.751781e+03,4.074704e-02,2.161874e+02,16
2.761781e+03,4.091445e-02,2.166925e+02,16
2.771781e+03,4.108190e-02,2.172085e+02,16
2.781781e+03,4.124936e-02,2.177345e+02,16
2.791781e+03,4.141682e-02,2.182697e+02,16
2.801781e+03,4.158425e-02,2.188136e+02,16
2.811781e+03,4.175163e-02,2.193651e+02,16
2.821781e+03,4.191894e-02,2.199236e+02,16
2.831781e+03,4.208616e-02,2.204883e+02,16
2.841781e+03,4.225327e-02,2.210584e+02,16
2.851781e+03,4.242026e-02,2.216332e+02,16
2.861781e+03,4.258709e-02,2.222117e+02,16
2.871781e+03,4.275376e-02,2.227933e+02,16
2.881781e+03,4.292023e-02,2.233772e+02,16
2.891781e+03,4.308649e-02,2.239624e+02,16
2.901781e+03,4.325252e-02,2.245483e+02,16
2.911781e+03,4.341830e-02,2.251340e+02,16
2.921781e+03,4.358380e-02,2.257187e+02,16
2.931781e+03,4.374902e-02,2.263017e+02,16
2.941781e+03,4.391392e-02,2.268822e+02,16
2.951781e+03,4.407850e-02,2.274596e+02,16
2.961781e+03,4.424274e-02,2.280331e+02,16
2.971781e+03,4.440663e-02,2.286020e+02,16
2.981781e+03,4.457016e-02,2.291659e+02,16
2.991781e+03,4.473331e-02,2.297243e+02,16
3.001781e+03,4.489608e-02,2.302766e+02,16
3.011781e+03,4.505848e-02,2.308224e+02,16
3.021781e+03,4.522050e-02,2.313617e+02,16
3.031781e+03,4.538214e-02,2.318940e+02,16
3.041781e+03,4.554342e-02,2.324194e+02,16
3.051781e+03,4.570435e-02,2.329377e+02,16
3.061781e+03,4.586493e-02,2.334491e+02,16
3.071781e+03,4.602519e-02,2.339537e+02,16
3.081781e+03,4.618515e-02,2.344516e+02,16
3.091781e+03,4.634483e-02,2.349431e+02,16
3.101781e+03,4.650424e-02,2.354286e+02,16
3.111781e+03,4.666342e-02,2.359083e+02,16
3.121781e+03,4.682238e-02,2.363826e+02,16
3.131781e+03,4.698115e-02,2.368520e+02,16
3.141781e+03,4.713975e-02,2.373167e+02,16
3.151781e+03,4.729819e-02,2.377774e+02,16
3.161781e+03,4.745651e-02,2.382342e+02,16
3.171781e+03,4.761472e-02,2.386877e+02,16
3.181781e+03,4.777283e-02,2.391382e+02,16
3.191781e+03,4.793087e-02,2.395862e+02,16
3.201781e+03,4.808884e-02,2.400319e+02,16
3.211781e+03,4.824677e-02,2.404757e+02,16
3.221781e+03,4.840465e-02,2.409180e+02,16
3.231781e+03,4.856251e-02,2.413589e+02,16
3.241781e+03,4.872034e-02,2.417989e+02,16
3.251781e+03,4.887817e-02,2.422382e+02,16
3.261781e+03,4.903599e-02,2.426769e+02,16
3.271781e+03,4.919381e-02,2.431154e+02,16
3.281781e+03,4.935163e-02,2.435539e+02,16
3.291781e+03,4.950947e-02,2.439924e+02,16
3.301781e+03,4.966731e-02,2.444312e+02,16
3.311781e+03,4.982517e-02,2.448705e+02,16
3.321781e+03,4.998304e-02,2.453103e+02,16
3.331781e+03,5.014094e-02,2.457509e+02,16
3.341781e+03,5.029885e-02,2.461922e+02,18
3.351781e+03,5.045678e-02,2.466345e+02,18
3.361781e+03,5.061472e-02,2.470778e+02,18
3.371781e+03,5.077269e-02,2.475222e+02,18
3.381781e+03,5.093068e-02,2.479678e+02,18
3.391781e+03,5.108868e-02,2.484146e+02,18
3.401781e+03,5.124670e-02,2.488627e+02,18
3.411781e+03,5.140473e-02,2.493122e+02,18
3.421781e+03,5.156278e-02,2.497631e+02,18
3.431781e+03,5.172085e-02,2.502154e+02,18
3.441781e+03,5.187893e-02,2.506692e+02,18
3.451781e+03,5.203701e-02,2.511245e+02,18
3.461781e+03,5.219511e-02,2.515813e+02,18
3.471781e+03,5.235322e-02,2.520397e+02,18
3.481781e+03,5.251133e-02,2.524997e+02,18
3.491781e+03,5.266945e-02,2.529613e+02,18
3.501781e+03,5.282758e-02,2.534245e+02,18
3.511781e+03,5.298571e-02,2.538894e+02,18
3.521781e+03,5.314384e-02,2.543558e+02,18
3.531781e+03,5.330196e-02,2.548239e+02,18
3.541781e+03,5.346010e-02,2.552937e+02,18
3.551781e+03,5.361822e-02,2.557650e+02,18
3.561781e+03,5.377634e-02,2.562381e+02,18
3.571781e+03,5.393445e-02,2.567127e+02,18
3.581781e+03,5.409256e-02,2.571891e+02,18
3.591781e+03,5.425066e-02,2.576670e+02,18
3.601781e+03,5.440875e-02,2.581466e+02,18
3.611781e+03,5.456683e-02,2.586278e+02,18
3.621781e+03,5.472489e-02,2.591106e+02,18
3.631781e+03,5.488294e-02,2.595950e+02,18
3.641781e+03,5.504098e-02,2.600811e+02,18
